# Mass function for redshift 0.000000
# 1) mass (Msun/h)
# 2) n(m) (Mpc^-3 Msun^-1 h^4)
# 3) upper +1-sigma limit for n(m) (Mpc^-3 Msun^-1 h^4)
# 4) lower -1-sigma limit for n(m) (Mpc^-3 Msun^-1 h^4)
# 5) number of halos in the bin
# 6) analytical n(m) from Watson et al. 2013
#
   1.1347838e+13   2.3247071e-17   2.3539933e-17   2.2954209e-17         6301    2.7827407e-17          1.2878416
   1.3010155e+13   1.8070807e-17   1.8435967e-17   1.7705647e-17         2449    2.1275725e-17          1.3185095
   1.4621043e+13   1.4953242e-17   1.5188123e-17   1.4718362e-17         4053    1.6903515e-17          1.3455583
   1.6262694e+13   1.1717616e-17   1.2011661e-17   1.1423571e-17         1588    1.3695906e-17          1.3709343
   1.7884562e+13   1.0452143e-17   1.0648516e-17    1.025577e-17         2833    1.1341675e-17          1.3942044
   2.0029964e+13   8.2606241e-18   8.4352006e-18   8.0860476e-18         2239    9.0509264e-18          1.4227019
   2.2682361e+13   6.5253642e-18   6.6520524e-18    6.398676e-18         2653    7.0573028e-18           1.454978
   2.5939075e+13   5.1209228e-18   5.2331525e-18   5.0086931e-18         2082    5.3878982e-18          1.4910165
   2.9228527e+13   3.9107912e-18    4.008868e-18   3.8127145e-18         1590    4.2313626e-18          1.5241972
   3.2492384e+13   3.2319369e-18   3.3210959e-18   3.1427779e-18         1314    3.4111204e-18          1.5545268
   3.6292307e+13   2.5623061e-18   2.6310573e-18    2.493555e-18         1389    2.7197732e-18          1.5871637
   4.0541082e+13   2.1011279e-18   2.1633853e-18   2.0388706e-18         1139    2.1647759e-18          1.6208421
    4.548098e+13   1.5835015e-18   1.6318428e-18   1.5351602e-18         1073    1.7049596e-18          1.6569298
   5.1223979e+13   1.2359576e-18   1.2749447e-18   1.1969705e-18         1005    1.3291741e-18          1.6954921
    5.783593e+13   9.8999589e-19   1.0248887e-18   9.5510312e-19          805    1.0284304e-18          1.7362174
   6.4931741e+13   7.1047797e-19   7.3784456e-19   6.8311138e-19          674    8.0341347e-19           1.776369
   7.2528341e+13   5.9347047e-19   6.1848227e-19   5.6845867e-19          563    6.3297257e-19          1.8160222
    8.098245e+13   4.7798559e-19   4.9778173e-19   4.5818945e-19          583     4.978558e-19          1.8568196
   9.1551418e+13   3.4975755e-19   3.6582245e-19   3.3369266e-19          474    3.7992075e-19          1.9037792
   1.0252802e+14   3.1212541e-19   3.2730147e-19   2.9694935e-19          423     2.950517e-19          1.9486582
   1.1458442e+14   2.0717544e-19    2.180195e-19   1.9633138e-19          365    2.2943761e-19          1.9942129
   1.2884052e+14   1.6006431e-19     1.69596e-19   1.5053262e-19          282    1.7529747e-19          2.0439334
   1.4421458e+14   1.0699334e-19    1.140178e-19   9.9968887e-20          232    1.3478778e-19          2.0934181
   1.6225089e+14   9.6359117e-20   1.0282632e-19   8.9891917e-20          222     1.019404e-19          2.1469959
   1.8204717e+14   7.5341956e-20   8.0751193e-20   6.9932719e-20          194    7.7214457e-20          2.2012428
   2.0378704e+14   4.6956327e-20   5.0924861e-20   4.2987793e-20          140    5.8511912e-20            2.25631
   2.2821525e+14   3.6586805e-20   3.9940711e-20   3.3232898e-20          119    4.4050651e-20           2.313561
   2.5717574e+14   3.4258953e-20   3.7263662e-20   3.1254244e-20          130    3.2434609e-20          2.3762338
   2.8745887e+14   2.1152707e-20   2.3433662e-20   1.8871752e-20           86    2.4226266e-20          2.4368143
   3.2091716e+14   1.4968527e-20   1.6744964e-20    1.319209e-20           71    1.8030907e-20          2.4988996
   3.6207143e+14   1.4175162e-20   1.5834239e-20   1.2516085e-20           73    1.2936547e-20          2.5695267
   4.0760224e+14   1.1068277e-20   1.2430688e-20   9.7058663e-21           66    9.2521231e-21          2.6416215
   4.5826559e+14   5.8415906e-21   6.7892218e-21   4.8939595e-21           38    6.5764676e-21          2.7157511
   5.1315769e+14   4.6956327e-21   5.4893395e-21   3.9019259e-21           35    4.6823588e-21          2.7901279
   5.7699204e+14   3.1450842e-21   3.7618859e-21   2.5282824e-21           26    3.2557734e-21          2.8702435
   6.4318954e+14   2.6043005e-21   3.1359011e-21   2.0726999e-21           24    2.2994147e-21          2.9473488
   7.2482334e+14   1.0541216e-21   1.3719512e-21   7.3629199e-22           11     1.547393e-21          3.0355455
   8.1476096e+14   1.1874014e-21   1.5047477e-21     8.70055e-22           14    1.0345622e-21          3.1254698
   9.0886775e+14   7.6070632e-22   1.0012628e-21   5.2014986e-22           10    6.9997749e-22          3.2128739
   1.0348494e+15   4.0993619e-22   5.7729193e-22   2.4258044e-22            6    4.3149747e-22          3.3211261
   1.1307993e+15   1.2096478e-22   2.0649979e-22   3.5429763e-23            2    3.0594883e-22          3.3979787
   1.3297463e+15   1.0772046e-22   1.8389032e-22   3.1550592e-23            2    1.5824144e-22          3.5448924
   1.4456103e+15               0               0               0            0    1.1075809e-22          3.6240435
   1.6220014e+15   4.2900298e-23   8.5800597e-23               0            1    6.6359478e-23          3.7371356
   1.8199155e+15   3.8035316e-23   7.6070632e-23               0            1    3.8744995e-23          3.8551036
   2.0419788e+15               0               0               0            0    2.1993512e-23          3.9782068
   2.2911379e+15               0               0               0            0    1.2106573e-23          4.1067202
    2.570699e+15               0               0               0            0    6.4441926e-24          4.2409336
   2.8843717e+15               0               0               0            0    3.3066566e-24          4.3811535
   3.2363183e+15               0               0               0            0    1.6300598e-24          4.5277058
   3.6312088e+15               0               0               0            0    7.6910555e-25          4.6809361
   4.0742833e+15               0               0               0            0    3.4589521e-25          4.8412127
