# Mass function for redshift 0.500000
# 1) mass (Msun/h)
# 2) n(m) (Mpc^-3 Msun^-1 h^4)
# 3) upper +1-sigma limit for n(m) (Mpc^-3 Msun^-1 h^4)
# 4) lower -1-sigma limit for n(m) (Mpc^-3 Msun^-1 h^4)
# 5) number of halos in the bin
# 6) analytical n(m) from Watson et al. 2013
#
    1.133503e+13    2.222879e-17   2.2515166e-17   2.1942413e-17         6025    2.4731225e-17          1.6321733
   1.3010155e+13   1.6580279e-17   1.6930055e-17   1.6230503e-17         2247    1.8593895e-17           1.671364
   1.4588209e+13   1.3647186e-17   1.3871574e-17   1.3422797e-17         3699    1.4646022e-17          1.7049813
   1.6262694e+13   1.1127308e-17   1.1413851e-17   1.0840765e-17         1508    1.1658695e-17          1.7378185
   1.7863594e+13   8.9874409e-18   9.1695357e-18   8.8053462e-18         2436    9.5601468e-18          1.7669475
   2.0033681e+13   7.1906906e-18   7.3535695e-18   7.0278118e-18         1949    7.4892895e-18          1.8034999
    2.266578e+13   5.7259886e-18   5.8446636e-18   5.6073137e-18         2328    5.7444777e-18          1.8441091
   2.5989961e+13   4.1296971e-18   4.2304814e-18   4.0289128e-18         1679    4.2675528e-18          1.8907162
   2.9210365e+13   3.1581484e-18   3.2462837e-18    3.070013e-18         1284     3.301968e-18          1.9318746
   3.2458144e+13   2.5776787e-18   2.6573035e-18    2.498054e-18         1048     2.613164e-18          1.9701549
   3.6192743e+13   1.9092778e-18   1.9686248e-18   1.8499308e-18         1035     2.046783e-18          2.0108716
   4.0544152e+13   1.5366458e-18   1.5898874e-18   1.4834042e-18          833    1.5817968e-18          2.0546353
   4.5421718e+13   1.1245369e-18   1.1652746e-18   1.0837993e-18          762    1.2181849e-18           2.099824
   5.1384364e+13   8.3504001e-19    8.670859e-19   8.0299412e-19          679    9.1363059e-19          2.1505404
   5.7758825e+13   6.7270528e-19   7.0146808e-19   6.4394248e-19          547    6.9258123e-19          2.2002802
   6.4784614e+13      4.6803e-19   4.9024172e-19   4.4581828e-19          444    5.2541181e-19          2.2507401
   7.2585672e+13   3.7842966e-19   3.9840241e-19   3.5845691e-19          359    3.9782122e-19          2.3023839
   8.0891281e+13   2.6317903e-19   2.7786825e-19   2.4848981e-19          321    3.0380585e-19          2.3531978
   9.1140783e+13   2.0660784e-19   2.1895502e-19   1.9426066e-19          280    2.2451893e-19          2.4110418
   1.0232821e+14   1.4831491e-19   1.5877624e-19   1.3785358e-19          201     1.664119e-19          2.4691544
   1.1473669e+14   1.0897996e-19   1.1684491e-19   1.0111501e-19          192    1.2299468e-19           2.528598
   1.2882401e+14    8.911382e-20   9.6225877e-20   8.2001763e-20          157    8.9963732e-20          2.5908529
   1.4504437e+14   5.3035494e-20   5.7981079e-20   4.8089909e-20          115    6.4809783e-20           2.656901
   1.6149662e+14   4.0800707e-20   4.5008979e-20   3.6592436e-20           94    4.7803047e-20          2.7188344
   1.8009988e+14   3.3399011e-20   3.7000519e-20   2.9797503e-20           86     3.483633e-20          2.7838033
   2.0425625e+14   2.2807359e-20   2.5573157e-20    2.004156e-20           68    2.3929948e-20          2.8615837
   2.2811556e+14   1.5987511e-20    1.820458e-20   1.3770442e-20           52    1.7043121e-20          2.9324222
   2.5722161e+14   9.4870946e-21   1.1068277e-20   7.9059121e-21           36     1.165385e-20          3.0122733
   2.8735687e+14   1.0822315e-20   1.2453841e-20   9.1907899e-21           44    8.1155358e-21           3.088696
   3.2185992e+14   4.8489594e-21   5.8600374e-21   3.8378815e-21           23    5.5367553e-21          3.1697807
   3.6348299e+14   4.4661469e-21   5.3974029e-21   3.5348909e-21           23    3.6208337e-21          3.2601197
   4.0748473e+14   2.1801152e-21   2.7847703e-21     1.57546e-21           13    2.3934818e-21          3.3483353
   4.5360406e+14   1.9984389e-21   2.5527061e-21   1.4441717e-21           13    1.6002179e-21          3.4341834
   5.2257456e+14    4.024828e-22   6.3485635e-22   1.7010925e-22            3     9.192409e-22           3.552301
   5.8664958e+14   1.2096478e-21    1.592172e-21   8.2712355e-22           10    5.7224733e-22          3.6530725
   6.4573039e+14   1.0851252e-22   2.1702504e-22               0            1    3.8023855e-22          3.7397234
   7.2452141e+14               0               0               0            0    2.2820872e-22          3.8475087
    8.129264e+14               0               0               0            0    1.3376397e-22          3.9596552
   9.1211842e+14   7.6070632e-23   1.5214126e-22               0            1    7.6419533e-23          4.0763817
   1.0234137e+15               0               0               0            0    4.2459646e-23           4.197919
   1.1482891e+15               0               0               0            0    2.2888566e-23          4.3245101
   1.2884015e+15               0               0               0            0    1.1939857e-23          4.4564116
   1.4456103e+15               0               0               0            0    6.0100859e-24          4.5938961
   1.6220014e+15               0               0               0            0    2.9101052e-24          4.7372535
   1.8199155e+15               0               0               0            0    1.3508162e-24          4.8867917
   2.0419788e+15               0               0               0            0    5.9883469e-25          5.0428393
   2.2911379e+15               0               0               0            0    2.5249003e-25          5.2057449
    2.570699e+15               0               0               0            0    1.0079485e-25          5.3758759
   2.8843717e+15               0               0               0            0    3.7907624e-26          5.5536211
   3.2363183e+15               0               0               0            0    1.3357738e-26           5.739393
   3.6312088e+15               0               0               0            0    4.3837392e-27          5.9336303
   4.0742833e+15               0               0               0            0    1.3310142e-27          6.1367995
