# Mass function for redshift 1.000000
# 1) mass (Msun/h)
# 2) n(m) (Mpc^-3 Msun^-1 h^4)
# 3) upper +1-sigma limit for n(m) (Mpc^-3 Msun^-1 h^4)
# 4) lower -1-sigma limit for n(m) (Mpc^-3 Msun^-1 h^4)
# 5) number of halos in the bin
# 6) analytical n(m) from Watson et al. 2013
#
   5.3734946e+13   7.0360171e-19   7.2699022e-19    6.802132e-19          905    6.1802558e-19           2.598247
   6.1739475e+13   4.4937214e-19    4.758058e-19   4.2293849e-19          289    4.2169587e-19          2.6738004
   6.9327978e+13   3.2575593e-19   3.4167015e-19   3.0984171e-19          419    3.0389561e-19          2.7393165
   7.7174344e+13   2.5034227e-19     2.70072e-19   2.3061253e-19          161    2.2279644e-19          2.8019801
   8.4868602e+13   1.7259622e-19   1.8418012e-19   1.6101232e-19          222     1.681253e-19          2.8592528
   9.5046297e+13   1.1817399e-19   1.2775916e-19   1.0858881e-19          152    1.1919694e-19          2.9297143
   1.0766854e+14   7.1008055e-20   7.7074682e-20   6.4941427e-20          137    8.0702181e-20          3.0101843
   1.2263088e+14   4.7165934e-20   5.2110267e-20   4.2221601e-20           91    5.2985396e-20          3.0975482
   1.3831357e+14   3.1098418e-20   3.5113207e-20    2.708363e-20           60    3.5421029e-20          3.1815811
   1.5201007e+14   2.2805507e-20   2.6243566e-20   1.9367447e-20           44    2.5571788e-20          3.2497866
   1.6991895e+14   1.4771749e-20   1.7168043e-20   1.2375455e-20           38    1.7205486e-20          3.3329155
   1.9265003e+14   6.9971441e-21   8.6463867e-21   5.3479014e-21           18    1.0824642e-20          3.4302587
   2.1653555e+14   7.1526362e-21   8.6440639e-21   5.6612084e-21           23     6.911834e-21          3.5245008
   2.3864682e+14   3.3689953e-21   4.3033865e-21   2.4346041e-21           13    4.6946859e-21          3.6056832
   2.7782764e+14   1.5549209e-21   2.1897147e-21    9.201271e-22            6    2.4961444e-21          3.7379279
   3.1041236e+14   1.3327893e-21   1.8768983e-21   7.8868037e-22            6    1.5394722e-21          3.8386997
   3.3956711e+14   8.8852623e-22   1.3327893e-21   4.4426312e-22            4    1.0255031e-21          3.9230539
   3.8577287e+14   1.7276899e-22   3.4553798e-22               0            1    5.6151564e-22          4.0474138
   4.3284428e+14   1.5549209e-22   3.1098418e-22               0            1    3.1734199e-22          4.1643626
   4.8565927e+14               0               0               0            0    1.7440472e-22           4.286016
   5.4491867e+14    1.196093e-22    2.392186e-22               0            1    9.2992191e-23          4.4126033
    6.114088e+14               0               0               0            0    4.7983828e-23          4.5443667
   6.8601196e+14               0               0               0            0    2.3894887e-23          4.6815625
   7.6971807e+14               0               0               0            0    1.1448963e-23          4.8244632
   8.6363788e+14               0               0               0            0    5.2607306e-24          4.9733565
   9.6901764e+14               0               0               0            0    2.3098146e-24          5.1285465
   1.0872557e+15               0               0               0            0    9.6526107e-25          5.2903547
   1.2199209e+15               0               0               0            0    3.8227663e-25          5.4591194
   1.3687738e+15               0               0               0            0    1.4280123e-25          5.6351962
   1.5357895e+15               0               0               0            0    5.0057405e-26          5.8189626
   1.7231841e+15               0               0               0            0    1.6373088e-26          6.0108201
   1.9334444e+15               0               0               0            0    4.9661768e-27          6.2111946
   2.1693603e+15               0               0               0            0    1.3873125e-27            6.42054
   2.4340623e+15               0               0               0            0    3.5425809e-28          6.6393388
   2.7310628e+15               0               0               0            0    8.2010569e-29          6.8681004
   3.0643028e+15               0               0               0            0    1.7056251e-29          7.1073617
   3.4382043e+15               0               0               0            0    3.1551857e-30          7.3576918
   3.8577287e+15               0               0               0            0    5.1347922e-31           7.619694
   4.3284428e+15               0               0               0            0     7.263054e-32          7.8940086
   4.8565927e+15               0               0               0            0    8.8105425e-33          8.1813193
