# Mass function for redshift 2.000000
# 1) mass (Msun/h)
# 2) n(m) (Mpc^-3 Msun^-1 h^4)
# 3) upper +1-sigma limit for n(m) (Mpc^-3 Msun^-1 h^4)
# 4) lower -1-sigma limit for n(m) (Mpc^-3 Msun^-1 h^4)
# 5) number of halos in the bin
# 6) analytical n(m) from Watson et al. 2013
#
   1.1320648e+13   5.4714183e-18   5.6134971e-18   5.3293394e-18         1483    5.2711761e-18          2.9377607
   1.3010155e+13   3.6599103e-18   3.8242451e-18   3.4955754e-18          496      3.52787e-18          3.0089542
   1.4564828e+13   2.3464747e-18   2.4395185e-18   2.2534309e-18          636    2.5278589e-18           3.068615
   1.6262694e+13   1.8594705e-18   1.9766062e-18   1.7423349e-18          252    1.8128222e-18          3.1285921
   1.7798383e+13   1.4351866e-18   1.5079534e-18   1.3624197e-18          389    1.3736029e-18          3.1789663
    1.998679e+13    9.924555e-19   1.0529666e-18   9.3194442e-19          269    9.5444474e-19          3.2454734
   2.2610241e+13    5.755504e-19   6.1317531e-19    5.379255e-19          234    6.4168908e-19          3.3184706
   2.5881636e+13   4.2305414e-19   4.5531172e-19   3.9079657e-19          172    4.1019089e-19          3.4012472
   2.9209074e+13   2.5088095e-19   2.7572186e-19   2.2604003e-19          102    2.7157761e-19          3.4779225
   3.2322104e+13   1.9676937e-19   2.1876885e-19   1.7476988e-19           80    1.9051575e-19          3.5440836
   3.6101278e+13   1.0514863e-19   1.1907591e-19   9.1221355e-20           57    1.2805176e-19          3.6184411
   4.0476038e+13   8.8546216e-20   1.0132676e-19   7.5765671e-20           48    8.3892237e-20           3.697772
   4.5174149e+13   3.5418486e-20   4.2648255e-20   2.8188718e-20           24    5.5221761e-20          3.7763369
   5.1214579e+13    2.582598e-20    3.146167e-20   2.0190289e-20           21    3.3712443e-20          3.8691233
   5.7190473e+13   1.4757703e-20   1.9017884e-20   1.0497521e-20           12    2.1525053e-20          3.9534737
    6.474101e+13   7.3788513e-21   1.0167795e-20   4.5899077e-21            7    1.2775605e-20          4.0514626
   7.2452141e+13   1.0541216e-21   2.1082432e-21               0            1    7.8219129e-21          4.1434483
    8.022929e+13   4.0993619e-21   5.9326522e-21   2.2660715e-21            5    4.9396505e-21          4.2294185
   9.1211842e+13   7.3788513e-22   1.4757703e-21               0            1    2.7104671e-21          4.3412875
   1.0234137e+14   7.3788513e-22   1.4757703e-21               0            1    1.5470661e-21          4.4453333
   1.1482891e+14   5.6760395e-22   1.1352079e-21               0            1    8.6334608e-22          4.5529954
   1.2829458e+14   1.7028118e-21   2.6859307e-21   7.1969297e-22            3    4.8115799e-22          4.6602559
   1.4456103e+14               0               0               0            0    2.4963362e-22          4.7798094
   1.6220014e+14   4.3405008e-22   8.6810016e-22               0            1    1.2887503e-22          4.8993021
   1.8199155e+14               0               0               0            0    6.4577705e-23          5.0230943
   2.0419788e+14   3.3540233e-22   6.7080467e-22               0            1    3.1339135e-23          5.1513808
   2.2911379e+14               0               0               0            0    1.4694107e-23          5.2843676
    2.570699e+14               0               0               0            0    6.6393535e-24          5.4222715
   2.8843717e+14               0               0               0            0    2.8827986e-24          5.5653209
   3.2363183e+14               0               0               0            0    1.1991834e-24           5.713756
   3.6312088e+14               0               0               0            0     4.763284e-25          5.8678295
   4.0742833e+14               0               0               0            0    1.8002087e-25          6.0278072
   4.5714211e+14               0               0               0            0    6.4483276e-26          6.1939696
   5.1292188e+14               0               0               0            0    2.1799396e-26          6.3666134
   5.7550782e+14               0               0               0            0    6.9233942e-27          6.5460523
   6.4573039e+14               0               0               0            0    2.0553917e-27          6.7326187
   7.2452141e+14               0               0               0            0    5.6728168e-28          6.9266644
    8.129264e+14               0               0               0            0    1.4469168e-28          7.1285616
   9.1211842e+14               0               0               0            0    3.3884693e-29          7.3387041
   1.0234137e+15               0               0               0            0    7.2343002e-30          7.5575076
   1.1482891e+15               0               0               0            0    1.3972172e-30          7.7854093
   1.2884015e+15               0               0               0            0    2.4206811e-31          8.0228713
   1.4456103e+15               0               0               0            0    3.7273691e-32          8.2703846
   1.6220014e+15               0               0               0            0    5.0496397e-33          8.5284707
   1.8199155e+15               0               0               0            0    5.9523247e-34          8.7976841
   2.0419788e+15               0               0               0            0     6.030809e-35          9.0786164
   2.2911379e+15               0               0               0            0    5.1820782e-36          9.3718951
    2.570699e+15               0               0               0            0    3.7212619e-37          9.6781817
   2.8843717e+15               0               0               0            0    2.1975004e-38           9.998176
   3.2363183e+15               0               0               0            0    1.0483802e-39          10.332621
   3.6312088e+15               0               0               0            0    3.9626564e-41          10.682306
   4.0742833e+15               0               0               0            0    1.1614341e-42          11.048071
