# Mass function for redshift 2.000000
# 1) mass (Msun/h)
# 2) n(m) (Mpc^-3 Msun^-1 h^4)
# 3) upper +1-sigma limit for n(m) (Mpc^-3 Msun^-1 h^4)
# 4) lower -1-sigma limit for n(m) (Mpc^-3 Msun^-1 h^4)
# 5) number of halos in the bin
# 6) analytical n(m) from Watson et al. 2013
#
   6.7128308e+12   3.6018188e-17   3.6491497e-17   3.5544878e-17         5791    3.5131035e-17           2.556017
   7.7174344e+12   2.6048035e-17   2.6617263e-17   2.5478806e-17         2094    2.4508873e-17          2.6180327
   8.6372645e+12   1.8907838e-17   1.9250768e-17   1.8564909e-17         3040     1.822628e-17            2.66976
   9.6467929e+12   1.3932091e-17   1.4348392e-17    1.351579e-17         1120    1.3558928e-17          2.7220352
   1.0571372e+13   1.0573462e-17   1.0829906e-17   1.0317018e-17         1700    1.0570565e-17          2.7664794
   1.1881177e+13   8.1042478e-18   8.3287602e-18   7.8797353e-18         1303     7.649782e-18          2.8247838
   1.3427738e+13   5.3489279e-18   5.4978544e-18   5.2000014e-18         1290    5.4121367e-18          2.8878398
   1.5366156e+13   3.4539976e-18   3.5736716e-18   3.3343237e-18          833     3.662386e-18          2.9597666
   1.7335886e+13   2.4464089e-18   2.5471259e-18   2.3456918e-18          590    2.5600271e-18          3.0263632
   1.9254518e+13   1.7746831e-18   1.8604656e-18   1.6889005e-18          428    1.8610409e-18          3.0861325
   2.1555711e+13    1.159971e-18    1.220032e-18     1.09991e-18          373    1.3101699e-18          3.1523713
   2.4037868e+13   7.8368014e-19   8.3304734e-19   7.3431293e-19          252    9.2582638e-19          3.2183151
   2.6848866e+13   5.8216239e-19   6.2021953e-19   5.4410524e-19          234      6.45075e-19          3.2873137
   3.0438781e+13   4.0220621e-19   4.3108293e-19   3.7332948e-19          194    4.2311057e-19          3.3682578
   3.4467609e+13   2.9647159e-19   3.2126379e-19   2.7167939e-19          143    2.7498239e-19          3.4513301
   3.8446489e+13   1.7059704e-19   1.8800852e-19   1.5318555e-19           96    1.8610915e-19          3.5268241
   4.2865885e+13   8.7075571e-20   9.9514938e-20   7.4636203e-20           49     1.247043e-19            3.60442
   4.8579344e+13   7.4636203e-20   8.4792904e-20   6.4479503e-20           54    7.7496831e-20          3.6967404
   5.3682616e+13   4.4781722e-20   5.2245342e-20   3.7318102e-20           36    5.2347704e-20          3.7729151
   6.0517548e+13   2.4878734e-20   3.0441789e-20    1.931568e-20           20    3.2183625e-20          3.8673247
   6.7905856e+13   1.6266865e-20   2.0212159e-20   1.2321571e-20           17    1.9817726e-20          3.9613007
   7.4948161e+13   1.2439367e-20   1.5889427e-20   8.9893075e-21           13    1.2894021e-20          4.0444298
   8.4998964e+13   4.6647627e-21   6.5691441e-21   2.7603813e-21            6    7.3000202e-21          4.1541149
   9.6214759e+13               0               0               0            0    4.0680656e-21          4.2663438
   1.0772252e+14   1.3094071e-21   2.2352977e-21   3.8351645e-22            2    2.3336903e-21           4.372442
   1.2112721e+14               0               0               0            0    1.2786917e-21          4.4865961
   1.3590696e+14               0               0               0            0    6.9000971e-22          4.6028072
   1.5249012e+14   4.4426312e-22   8.8852623e-22               0            1    3.6204577e-22          4.7233184
   1.7109673e+14               0               0               0            0    1.8431772e-22          4.8483254
   1.9197368e+14               0               0               0            0    9.0836778e-23          4.9780364
   2.1539802e+14   3.2735177e-22   6.5470354e-22               0            1    4.3227338e-23          5.1126704
   2.4168055e+14               0               0               0            0    1.9809764e-23          5.2524563
   2.7117004e+14               0               0               0            0    8.7165977e-24          5.3976343
   3.0425778e+14               0               0               0            0    3.6708961e-24          5.5484592
   3.4138285e+14               0               0               0            0    1.4744882e-24          5.7052014
   3.8303786e+14               0               0               0            0    5.6274273e-25          5.8681453
   4.2977554e+14               0               0               0            0    2.0323216e-25          6.0375888
   4.8221609e+14               0               0               0            0    6.9142786e-26          6.2138454
   5.4105535e+14               0               0               0            0    2.2052556e-26          6.3972467
   6.0707409e+14               0               0               0            0    6.5588043e-27          6.5881434
   6.8114833e+14               0               0               0            0    1.8085427e-27          6.7869065
     7.64261e+14               0               0               0            0    4.5943171e-28          6.9939301
   8.5751495e+14               0               0               0            0    1.0678154e-28          7.2096309
   9.6214759e+14               0               0               0            0    2.2535571e-29          7.4344489
   1.0795474e+15               0               0               0            0    4.2829634e-30          7.6688497
   1.2112721e+15               0               0               0            0    7.2643969e-31          7.9133227
   1.3590696e+15               0               0               0            0    1.0887997e-31          8.1683832
   1.5249012e+15               0               0               0            0    1.4265722e-32           8.434577
   1.7109673e+15               0               0               0            0    1.6146653e-33          8.7124852
   1.9197368e+15               0               0               0            0    1.5583186e-34          9.0027241
   2.1539802e+15               0               0               0            0     1.264123e-35          9.3059503
   2.4168055e+15               0               0               0            0    8.4845939e-37           9.622862
   2.7117004e+15               0               0               0            0     4.630802e-38          9.9541968
   3.0425778e+15               0               0               0            0    2.0165264e-39          10.300732
   3.4138285e+15               0               0               0            0    6.8609481e-41           10.66329
   3.8303786e+15               0               0               0            0    1.7823444e-42          11.042746
   4.2977554e+15               0               0               0            0    3.4466709e-44          11.440024
   4.8221609e+15               0               0               0            0    4.8241827e-46          11.856115
