# Mass function for redshift 0.000000
# 1) mass (Msun/h)
# 2) n(m) (Mpc^-3 Msun^-1 h^4)
# 3) upper +1-sigma limit for n(m) (Mpc^-3 Msun^-1 h^4)
# 4) lower -1-sigma limit for n(m) (Mpc^-3 Msun^-1 h^4)
# 5) number of halos in the bin
# 6) analytical n(m) from Watson et al. 2013
#
   4.3172289e+13    1.702203e-18   1.7427777e-18   1.6616283e-18         1760    1.9001972e-18          1.6404358
   4.9629803e+13   1.4178577e-18   1.4702275e-18    1.365488e-18          733    1.4204429e-18          1.6851134
   5.5623201e+13   1.0745157e-18   1.1067527e-18   1.0422786e-18         1111    1.1170944e-18          1.7229783
   6.2037254e+13   8.8591929e-19   9.2731558e-19     8.44523e-19          458    8.8577125e-19          1.7603888
   6.8108729e+13   6.6540663e-19   6.9077502e-19   6.4003824e-19          688    7.2503422e-19          1.7933343
   7.6461282e+13   5.4547869e-19   5.6844749e-19    5.225099e-19          564    5.6439081e-19          1.8353994
   8.6632377e+13   4.0040457e-19   4.1647225e-19   3.8433689e-19          621    4.2928136e-19          1.8824283
   9.8988701e+13   2.9530643e-19   3.0910519e-19   2.8150767e-19          458     3.192372e-19          1.9345737
   1.1105396e+14      2.5662e-19    2.694832e-19    2.437568e-19          398    2.4635659e-19          1.9812363
   1.2407451e+14   1.5345618e-19   1.6340327e-19   1.4350909e-19          238    1.9122492e-19          2.0277597
   1.3827945e+14    1.257309e-19    1.335284e-19    1.179334e-19          260    1.4873326e-19          2.0747717
   1.5470661e+14   1.0348621e-19   1.1056038e-19   9.6412034e-20          214    1.1418677e-19          2.1251153
   1.7412187e+14   8.0467779e-20   8.6047215e-20   7.4888342e-20          208    8.6021678e-20          2.1800402
   1.9543278e+14   6.4799774e-20   6.9370397e-20    6.022915e-20          201    6.4894666e-20          2.2356509
   2.2026456e+14   4.1265528e-20   4.4912919e-20   3.7618136e-20          128    4.8177027e-20          2.2954099
   2.4659013e+14   3.5923116e-20   3.9073781e-20    3.277245e-20          130    3.6151687e-20          2.3539132
   2.7808669e+14   2.4317186e-20   2.6909407e-20   2.1724965e-20           88    2.6443598e-20          2.4185498
   3.0826967e+14   1.7623819e-20   1.9570044e-20   1.5677594e-20           82    2.0100751e-20          2.4759711
   3.4818409e+14   1.2379658e-20   1.3927116e-20   1.0832201e-20           64     1.442097e-20          2.5463294
   3.8821004e+14   1.0058472e-20   1.1453331e-20   8.6636132e-21           52    1.0632955e-20          2.6116131
   4.3906366e+14   4.6126131e-21   5.4410628e-21   3.7841633e-21           31    7.4588338e-21          2.6883332
   4.9552256e+14    4.761407e-21   5.6031128e-21   3.9197012e-21           32    5.2065052e-21          2.7668368
   5.5332877e+14   2.2970069e-21   2.8239764e-21   1.7700374e-21           19    3.7121048e-21          2.8412648
   6.2329194e+14   1.9343216e-21   2.4034635e-21   1.4651797e-21           17    2.5457687e-21          2.9247464
   7.0198599e+14    1.527096e-21   1.9213905e-21   1.1328015e-21           15     1.723135e-21          3.0115592
   7.8048773e+14   6.1546597e-22   8.4809023e-22    3.828417e-22            7    1.2016427e-21           3.092006
    8.717383e+14    7.253706e-22    9.671608e-22    4.835804e-22            9    8.1391544e-22          3.1791264
   9.7536349e+14   4.1449749e-22   5.8371538e-22    2.452796e-22            6    5.3951989e-22          3.2711426
    1.106331e+15   1.2895477e-22   2.2013957e-22   3.7769979e-23            2    3.3338807e-22          3.3787926
   1.2357821e+15   2.7633166e-22   3.9991093e-22   1.5275238e-22            5    2.1430652e-22             3.4774
   1.3851962e+15     5.09032e-23    1.018064e-22               0            1    1.3310864e-22           3.583299
   1.5542157e+15               0               0               0            0    8.0473408e-23          3.6946457
   1.7225677e+15   8.0596734e-23   1.3758723e-22   2.3606237e-23            2    5.0264597e-23          3.7981498
   1.9566417e+15               0               0               0            0    2.7225597e-23          3.9319442
   2.1953881e+15               0               0               0            0    1.5163248e-23          4.0584185
    2.463266e+15               0               0               0            0    8.1751552e-24          4.1904835
   2.7638299e+15    2.512106e-23    5.024212e-23               0            1    4.2539021e-24          4.3284393
   3.1010681e+15               0               0               0            0    2.1293035e-24          4.4726043
   3.4794556e+15               0               0               0            0    1.0215903e-24          4.6233167
   3.9040134e+15               0               0               0            0    4.6792607e-25           4.780936
   4.3803751e+15               0               0               0            0    2.0371901e-25          4.9458462
