# Mass function for redshift 0.000000
# 1) mass (Msun/h)
# 2) n(m) (Mpc^-3 Msun^-1 h^4)
# 3) upper +1-sigma limit for n(m) (Mpc^-3 Msun^-1 h^4)
# 4) lower -1-sigma limit for n(m) (Mpc^-3 Msun^-1 h^4)
# 5) number of halos in the bin
# 6) analytical n(m) from Watson et al. 2013
#
   7.2489038e+11   4.0510975e-15   4.1690796e-15   3.9331155e-15         1179    5.5791623e-15         0.84350442
   8.3264992e+11    3.174906e-15    3.322616e-15    3.027196e-15          462    4.2788457e-15         0.85990368
   9.3481556e+11    2.800377e-15   2.8984699e-15   2.7022841e-15          815    3.4283355e-15         0.87397562
   1.0408124e+12   2.2403016e-15   2.3643804e-15   2.1162228e-15          326    2.7909736e-15         0.88735235
   1.1431316e+12   1.9619819e-15   2.0440883e-15   1.8798755e-15          571    2.3321703e-15         0.89928794
   1.2804524e+12    1.742075e-15   1.8194433e-15   1.6647068e-15          507    1.8766659e-15         0.91405777
   1.4524445e+12   1.4225228e-15   1.4796067e-15   1.3654389e-15          621    1.4740538e-15         0.93090462
   1.6605956e+12    1.081209e-15   1.1309756e-15   1.0314423e-15          472    1.1403415e-15         0.94932929
   1.8752883e+12   8.7046484e-16   9.1511874e-16   8.2581093e-16          380     9.032115e-16          0.9665396
   2.0818584e+12   6.8033699e-16   7.1981415e-16   6.4085984e-16          297    7.3915541e-16         0.98171192
   2.3181287e+12   4.8791845e-16   5.1687108e-16   4.5896582e-16          284    6.0136783e-16         0.99769924
   2.6013612e+12   4.4496788e-16   4.7261684e-16   4.1731892e-16          259    4.8195776e-16          1.0152841
   2.9038796e+12   3.6696965e-16   3.8942783e-16   3.4451147e-16          267    3.9012526e-16          1.0325059
    3.280867e+12   2.6686619e-16   2.8434918e-16   2.4938321e-16          233     3.085066e-16          1.0521337
   3.7048716e+12     2.26779e-16   2.4289548e-16   2.1066252e-16          198    2.4415248e-16          1.0722409
   4.1559027e+12   1.6689363e-16   1.7969379e-16   1.5409348e-16          170    1.9566967e-16          1.0917814
   4.6435489e+12   1.3842354e-16   1.5008091e-16   1.2676618e-16          141    1.5796854e-16          1.1111641
   5.2140891e+12   1.3209686e-16   1.4213999e-16   1.2205372e-16          173    1.2628687e-16           1.131964
   5.8294223e+12   1.0926624e-16   1.1793162e-16   1.0060087e-16          159    1.0177638e-16          1.1525407
   6.5522438e+12   8.3152299e-17   9.0711599e-17   7.5592999e-17          121    8.1151827e-17           1.174706
   7.3446662e+12   6.3434685e-17   6.9225452e-17   5.7643917e-17          120    6.5023541e-17          1.1969736
   8.2241355e+12   5.3390859e-17   5.8703449e-17    4.807827e-17          101    5.2186541e-17          1.2196579
   9.2298459e+12   4.5527602e-17   4.9949633e-17    4.110557e-17          106    4.1679125e-17          1.2434618
   1.0384716e+13   3.3551973e-17    3.723478e-17   2.9869165e-17           83    3.3105371e-17          1.2685054
    1.158132e+13   2.7488363e-17   3.0641495e-17   2.4335232e-17           76    2.6738042e-17          1.2923433
   1.3032421e+13    2.092864e-17   2.3485481e-17     1.83718e-17           67    2.1204268e-17             1.3189
   1.4704642e+13   1.8039238e-17   2.0311969e-17   1.5766508e-17           63     1.671431e-17          1.3469003
   1.6415693e+13   1.2271591e-17   1.4007056e-17   1.0536126e-17           50    1.3444166e-17           1.373201
   1.8368412e+13   1.2369763e-17   1.4053075e-17   1.0686452e-17           54    1.0755394e-17          1.4008431
   2.0715141e+13   6.8720908e-18   8.0336862e-18   5.7104955e-18           35    8.4629308e-18          1.4313273
   2.3271619e+13   7.9571578e-18   9.1567445e-18   6.7575711e-18           44    6.7032379e-18          1.4617679
   2.6013371e+13   4.6855165e-18   5.5409708e-18   3.8300621e-18           30    5.3568885e-18           1.491799
   2.9135038e+13   3.8655511e-18   4.6094767e-18   3.1216254e-18           27    4.2589666e-18          1.5232929
   3.2635251e+13   3.3735719e-18   4.0228161e-18   2.7243277e-18           27    3.3807024e-18          1.5558027
   3.6902079e+13   2.5911162e-18   3.1314013e-18   2.0508311e-18           23    2.6281996e-18          1.5921669
   4.1606063e+13   2.1222633e-18   2.5853792e-18   1.6591475e-18           21    2.0516174e-18          1.6288802
   4.5742371e+13   1.1602231e-18   1.4820111e-18   8.3843513e-19           13    1.6847059e-18          1.6587589
   5.1228787e+13    1.579791e-18    1.933043e-18    1.226539e-18           20    1.3289118e-18           1.695523
   5.8028353e+13   1.2043871e-18   1.4964938e-18   9.1228029e-19           17    1.0212019e-18          1.7373514
    6.579567e+13    1.081718e-18   1.3440732e-18   8.1936285e-19           17    7.8094942e-19            1.78104
   7.2523808e+13    8.449292e-19    1.063089e-18   6.2676942e-19           15    6.3305826e-19          1.8159995
   8.2495948e+13   6.0193496e-19   7.7569862e-19   4.2817131e-19           12    4.7805429e-19          1.8638006
   9.1843021e+13   3.5699173e-19   4.8320737e-19   2.3077609e-19            8    3.7724948e-19          1.9050192
   1.0488787e+14   3.1963213e-19   4.3263916e-19   2.0662511e-19            8     2.803235e-19          1.9578601
   1.1716464e+14   3.1880834e-19   4.2507778e-19   2.1253889e-19            9      2.18074e-19          2.0035206
   1.3051788e+14   2.5334897e-19   3.4292136e-19   1.6377658e-19            8    1.7012598e-19          2.0495261
   1.4540149e+14   1.1312084e-19   1.6968125e-19   5.6560418e-20            4    1.3221515e-19          2.0970827
    1.597994e+14   7.5517482e-20   1.1911752e-19   3.1917443e-20            3    1.0571566e-19          2.1399647
    1.922554e+14   8.9538643e-20   1.3430796e-19   4.4769321e-20            4    6.7566177e-20           2.227634
   2.0712437e+14               0               0               0            0    5.6196211e-20             2.2644
   2.3436782e+14   5.3410032e-20   8.4246329e-20   2.2573736e-20            3    4.1172798e-20           2.327312
   2.6075413e+14   1.5870879e-20   3.1741759e-20               0            1    3.1291951e-20          2.3836372
   2.9257095e+14               0               0               0            0     2.311814e-20          2.4466067
      3.2827e+14               0               0               0            0    1.6952873e-20          2.5119495
     3.68325e+14               0               0               0            0    1.2331806e-20          2.5797772
   4.1326745e+14               0               0               0            0    8.8920579e-21          2.6502068
   4.6369371e+14   8.9247933e-21   1.7849587e-20               0            1    6.3510266e-21          2.7233622
   5.2027289e+14               0               0               0            0    4.4894961e-21          2.7993744
   5.8375579e+14               0               0               0            0    3.1381792e-21          2.8783816
   6.5498477e+14               0               0               0            0     2.167023e-21          2.9605307
     7.34905e+14               0               0               0            0     1.476712e-21          3.0459768
   8.2457697e+14   5.0197888e-21   1.0039578e-20               0            1    9.9190992e-22          3.1348842
   9.2519058e+14               0               0               0            0     6.559087e-22          3.2274267
   1.0380809e+15               0               0               0            0     4.263931e-22          3.3237876
   1.1647459e+15               0               0               0            0    2.7209469e-22          3.4241596
   1.3068664e+15               0               0               0            0    1.7016118e-22          3.5287468
   1.4663282e+15               0               0               0            0     1.041006e-22          3.6377659
