# Mass function for redshift 0.000000
# 1) mass (Msun/h)
# 2) n(m) (Mpc^-3 Msun^-1 h^4)
# 3) upper +1-sigma limit for n(m) (Mpc^-3 Msun^-1 h^4)
# 4) lower -1-sigma limit for n(m) (Mpc^-3 Msun^-1 h^4)
# 5) number of halos in the bin
# 6) analytical n(m) from Watson et al. 2013
#
    7.247919e+11   4.0717138e-15   4.1899957e-15    3.953432e-15         1185    5.5806139e-15         0.84348858
   8.3264992e+11    3.174906e-15    3.322616e-15    3.027196e-15          462    4.2788457e-15         0.85990368
   9.3527847e+11   2.7900689e-15   2.8879811e-15   2.6921567e-15          812     3.425087e-15         0.87403656
   1.0408124e+12   2.2265574e-15   2.3502551e-15   2.1028598e-15          324    2.7909736e-15         0.88735235
   1.1431834e+12   1.9516738e-15   2.0335642e-15   1.8697834e-15          568     2.331968e-15         0.89929376
   1.2806253e+12   1.7626913e-15    1.840516e-15   1.6848666e-15          513    1.8761806e-15         0.91407556
   1.4522051e+12   1.4179414e-15   1.4749333e-15   1.3609495e-15          619    1.4745194e-15         0.93088228
   1.6602085e+12   1.0926624e-15    1.142692e-15   1.0426329e-15          477    1.1408512e-15         0.94929674
    1.876415e+12   8.6130205e-16   9.0572031e-16   8.1688379e-16          376    9.0217172e-16         0.96662579
   2.0804645e+12   6.8491839e-16   7.2452824e-16   6.4530853e-16          299    7.4010589e-16         0.98161353
    2.316494e+12   4.7761031e-16   5.0625548e-16   4.4896515e-16          278     6.021827e-16         0.99759305
   2.5997008e+12   4.6043009e-16   4.8855533e-16   4.3230484e-16          268    4.8254921e-16          1.0151854
   2.9042871e+12    3.628464e-16   3.8517805e-16   3.4051474e-16          264    3.9002004e-16          1.0325282
    3.280867e+12   2.6686619e-16   2.8434918e-16   2.4938321e-16          233     3.085066e-16          1.0521337
   3.7043059e+12   2.2563365e-16   2.4170938e-16   2.0955792e-16          197    2.4422429e-16          1.0722152
   4.1505217e+12   1.6591191e-16   1.7867436e-16   1.5314945e-16          169    1.9615904e-16           1.091558
   4.6465189e+12   1.3940527e-16    1.511039e-16   1.2770664e-16          142     1.577737e-16          1.1112773
   5.2156935e+12   1.3209686e-16   1.4213999e-16   1.2205372e-16          173     1.262118e-16            1.13202
   5.8320851e+12   1.0789183e-16   1.1650253e-16   9.9281121e-17          157    1.0168645e-16          1.1526261
   6.5582373e+12   8.5213926e-17   9.2866363e-17    7.756149e-17          124    8.1008083e-17          1.1748819
   7.3521589e+12   6.2906062e-17   6.8672651e-17   5.7139473e-17          119    6.4894873e-17          1.1971753
   8.2316926e+12   5.3390859e-17   5.8703449e-17    4.807827e-17          101    5.2093323e-17          1.2198447
   9.2219283e+12   4.5098096e-17    4.949922e-17   4.0696973e-17          105    4.1748967e-17          1.2432822
   1.0381315e+13   3.5573176e-17   3.9365289e-17   3.1781063e-17           88     3.312659e-17          1.2684348
    1.162053e+13   2.6764985e-17   2.9876352e-17   2.3653619e-17           74    2.6561376e-17          1.2930926
   1.3059134e+13   2.1241008e-17   2.3816859e-17   1.8665157e-17           68     2.111901e-17          1.3193677
   1.4710149e+13   1.7752901e-17   2.0007522e-17   1.5498281e-17           62    1.6701957e-17          1.3469885
   1.6407367e+13   1.2271591e-17   1.4007056e-17   1.0536126e-17           50    1.3457689e-17           1.373078
   1.8353647e+13   1.2140694e-17   1.3808346e-17   1.0473041e-17           53    1.0772613e-17          1.4006425
   2.0742896e+13   6.8720908e-18   8.0336862e-18   5.7104955e-18           35    8.4403162e-18          1.4316722
   2.3271619e+13   7.9571578e-18   9.1567445e-18   6.7575711e-18           44    6.7032379e-18          1.4617679
   2.6011357e+13   4.8417004e-18   5.7112954e-18   3.9721053e-18           31    5.3577258e-18          1.4917778
   2.9199285e+13   3.8655511e-18   4.6094767e-18   3.1216254e-18           27    4.2399684e-18          1.5239146
   3.2708769e+13    3.498519e-18   4.1596769e-18    2.837361e-18           28    3.3652041e-18          1.5564577
   3.7030844e+13    2.478459e-18   3.0068682e-18   1.9500498e-18           22    2.6094375e-18          1.5932158
   4.1843813e+13   2.2233235e-18   2.6973377e-18   1.7493093e-18           22    2.0275301e-18          1.6306543
   4.5758383e+13   1.1602231e-18   1.4820111e-18   8.3843513e-19           13    1.6834765e-18          1.6588707
   5.1287766e+13    1.579791e-18    1.933043e-18    1.226539e-18           20    1.3256998e-18          1.6959025
   5.7772027e+13   1.0626945e-18    1.337081e-18   7.8830793e-19           15    1.0308472e-18          1.7358402
   6.5599753e+13    1.081718e-18   1.3440732e-18   8.1936285e-19           17    7.8596452e-19          1.7799845
   7.2336462e+13   9.0125781e-19   1.1265723e-18   6.7594336e-19           16    6.3661478e-19           1.815058
    8.221647e+13   4.5145122e-19   6.0193496e-19   3.0096748e-19            9    4.8162616e-19          1.8625184
   9.1480472e+13   4.4623966e-19   5.8735304e-19   3.0512629e-19           10    3.8057467e-19          1.9034771
   1.0441276e+14   3.5958615e-19    4.794482e-19    2.397241e-19            9    2.8320514e-19          1.9560193
   1.1622405e+14   3.1880834e-19   4.2507778e-19   2.1253889e-19            9     2.221244e-19          2.0001444
   1.2988471e+14   2.5334897e-19   3.4292136e-19   1.6377658e-19            8    1.7205316e-19          2.0474209
   1.4515864e+14   1.1312084e-19   1.6968125e-19   5.6560418e-20            4    1.3273606e-19          2.0963345
   1.5970688e+14   7.5517482e-20   1.1911752e-19   3.1917443e-20            3    1.0586181e-19          2.1396979
   1.9242887e+14   8.9538643e-20   1.3430796e-19   4.4769321e-20            4    6.7416568e-20           2.228074
   2.0712437e+14               0               0               0            0    5.6196211e-20             2.2644
   2.3420592e+14   5.3410032e-20   8.4246329e-20   2.2573736e-20            3    4.1245298e-20          2.3269534
   2.6075413e+14   1.5870879e-20   3.1741759e-20               0            1    3.1291951e-20          2.3836372
   2.9257095e+14               0               0               0            0     2.311814e-20          2.4466067
      3.2827e+14               0               0               0            0    1.6952873e-20          2.5119495
     3.68325e+14               0               0               0            0    1.2331806e-20          2.5797772
   4.1326745e+14               0               0               0            0    8.8920579e-21          2.6502068
   4.6369371e+14   8.9247933e-21   1.7849587e-20               0            1    6.3510266e-21          2.7233622
   5.2027289e+14               0               0               0            0    4.4894961e-21          2.7993744
   5.8375579e+14               0               0               0            0    3.1381792e-21          2.8783816
   6.5498477e+14               0               0               0            0     2.167023e-21          2.9605307
     7.34905e+14   5.6328613e-21   1.1265723e-20               0            1     1.476712e-21          3.0459768
   8.2457697e+14               0               0               0            0    9.9190992e-22          3.1348842
   9.2519058e+14               0               0               0            0     6.559087e-22          3.2274267
   1.0380809e+15               0               0               0            0     4.263931e-22          3.3237876
   1.1647459e+15               0               0               0            0    2.7209469e-22          3.4241596
   1.3068664e+15               0               0               0            0    1.7016118e-22          3.5287468
   1.4663282e+15               0               0               0            0     1.041006e-22          3.6377659
