# Mass function for redshift 1.000000
# 1) mass (Msun/h)
# 2) n(m) (Mpc^-3 Msun^-1 h^4)
# 3) upper +1-sigma limit for n(m) (Mpc^-3 Msun^-1 h^4)
# 4) lower -1-sigma limit for n(m) (Mpc^-3 Msun^-1 h^4)
# 5) number of halos in the bin
# 6) analytical n(m) from Watson et al. 2013
#
   7.2521285e+11   4.7245624e-15   4.8519744e-15   4.5971505e-15         1375    5.4439457e-15           1.337003
   8.3264992e+11   3.6490802e-15   3.8074368e-15   3.4907236e-15          531    4.1456882e-15           1.362913
    9.303064e+11   3.0615165e-15   3.1640811e-15   2.9589518e-15          891    3.3294658e-15          1.3842735
   1.0408124e+12    2.343383e-15   2.4702843e-15   2.2164817e-15          341    2.6654004e-15           1.406418
   1.1422774e+12   2.0959877e-15   2.1808518e-15   2.0111236e-15          610    2.2156475e-15          1.4251831
    1.281165e+12    1.666482e-15   1.7421531e-15    1.590811e-15          485    1.7629386e-15          1.4488613
   1.4545531e+12   1.2301043e-15   1.2831872e-15   1.1770213e-15          537    1.3679725e-15          1.4757583
   1.6607855e+12   9.5063923e-16   9.9730428e-16   9.0397419e-16          415    1.0484997e-15          1.5046743
   1.8677373e+12   6.9408117e-16   7.3395509e-16   6.5420725e-16          303    8.2767461e-16          1.5310095
   2.0734616e+12   6.2306957e-16   6.6084871e-16   5.8529043e-16          272     6.700856e-16          1.5550335
   2.3163032e+12   4.8104636e-16   5.0979438e-16   4.5229834e-16          280    5.3521303e-16          1.5811255
   2.5958567e+12   4.0545336e-16   4.3184612e-16   3.7906059e-16          236    4.2430261e-16          1.6086659
    2.906403e+12   3.2711152e-16   3.4831501e-16   3.0590803e-16          238    3.3666084e-16          1.6366989
   3.2980435e+12   2.4166853e-16   2.5830567e-16   2.2503138e-16          211    2.5952965e-16          1.6689405
   3.7029228e+12   1.8783715e-16   2.0250477e-16   1.7316953e-16          164    2.0421223e-16           1.699319
   4.1685062e+12     1.29588e-16   1.4086719e-16   1.1830881e-16          132    1.5957653e-16          1.7312576
   4.6448195e+12   1.3155145e-16   1.4291577e-16   1.2018714e-16          134    1.2720934e-16          1.7612275
   5.2019594e+12   1.0079067e-16   1.0956337e-16   9.2017964e-17          132    1.0018045e-16          1.7934462
   5.8603031e+12   8.1090672e-17   8.8555673e-17    7.362567e-17          118    7.7782933e-17          1.8282975
   6.5501794e+12   4.8104636e-17   5.3854239e-17   4.2355032e-17           70    6.1302691e-17           1.861766
   7.3550743e+12     4.01753e-17   4.4783723e-17   3.5566877e-17           76    4.7747267e-17          1.8975994
    8.208353e+12   3.9118055e-17   4.3665437e-17   3.4570674e-17           74    3.7610711e-17          1.9324899
   9.1692053e+12   2.9635892e-17   3.3203634e-17    2.606815e-17           69    2.9504707e-17          1.9686523
    1.026258e+13   1.6573866e-17   1.9162269e-17   1.3985463e-17           41    2.2994129e-17          2.0064938
   1.1647847e+13   1.6276005e-17   1.8702288e-17   1.3849721e-17           45    1.7323639e-17          2.0503258
   1.3181845e+13   1.2182343e-17   1.4133079e-17   1.0231607e-17           39    1.3093786e-17          2.0945362
   1.4688148e+13   1.1739822e-17   1.3573274e-17   9.9063697e-18           41    1.0221468e-17          2.1343642
    1.642851e+13   8.3446817e-18   9.7757828e-18   6.9135806e-18           34    7.8870675e-18          2.1767685
   1.8375295e+13   6.4139514e-18   7.6260743e-18   5.2018285e-18           28    6.0660127e-18          2.2204286
   2.0687881e+13    3.926909e-18   4.8049926e-18   3.0488255e-18           20    4.5770422e-18          2.2680591
   2.3279504e+13   2.5318229e-18   3.2084811e-18   1.8551648e-18           14     3.443552e-18          2.3169864
   2.6381125e+13   2.3427582e-18   2.9476558e-18   1.7378607e-18           15    2.5348217e-18          2.3705426
    2.965448e+13   1.1453485e-18   1.5502903e-18   7.4040664e-19            8    1.8941528e-18          2.4222804
    3.253117e+13   1.4993653e-18   1.9321947e-18   1.0665358e-18           12    1.4986978e-18          2.4644125
   3.7002458e+13   1.2392295e-18   1.6128712e-18   8.6558774e-19           11    1.0760249e-18          2.5248173
   4.1805965e+13   1.0106016e-18   1.3301819e-18   6.9102131e-19           10    7.8101225e-19          2.5840751
   4.6293023e+13    5.354876e-19   7.5409949e-19    3.168757e-19            6    5.9453407e-19           2.635135
   5.2618849e+13    4.739373e-19   6.6742139e-19   2.8045321e-19            6      4.19015e-19          2.7013815
    5.675897e+13   1.4169259e-19   2.4188439e-19     4.15008e-20            2    3.3935314e-19          2.7416955
   6.5293632e+13   1.9089141e-19   3.0110262e-19   8.0680204e-20            3    2.2785099e-19          2.8185835
   7.3203806e+13   2.2531445e-19   3.3797168e-19   1.1265723e-19            4    1.6318838e-19          2.8836801
   8.2457697e+13   5.0161247e-20   1.0032249e-19               0            1    1.1427145e-19          2.9537716
   9.2519058e+13   4.4623966e-20   8.9247933e-20               0            1    8.0214206e-20          3.0239188
   1.0380809e+14   3.9954016e-20   7.9908033e-20               0            1    5.5759343e-20          3.0964856
   1.1647459e+14   3.5423149e-20   7.0846297e-20               0            1    3.8354769e-20          3.1715773
   1.3068664e+14               0               0               0            0     2.608642e-20          3.2493045
   1.4663282e+14               0               0               0            0    1.7528075e-20           3.329783
   1.6452474e+14   2.5172494e-20   5.0344988e-20               0            1    1.1624695e-20          3.4131354
   1.8459979e+14               0               0               0            0    7.6019933e-21          3.4994902
   2.0712437e+14               0               0               0            0    4.8967357e-21          3.5889835
   2.3239737e+14               0               0               0            0    3.1032313e-21          3.6817595
   2.6075413e+14               0               0               0            0    1.9324238e-21          3.7779698
   2.9257095e+14               0               0               0            0    1.1808008e-21          3.8777739
      3.2827e+14               0               0               0            0    7.0695567e-22          3.9813397
     3.68325e+14               0               0               0            0    4.1404819e-22          4.0888437
   4.1326745e+14               0               0               0            0    2.3680765e-22          4.2004719
   4.6369371e+14               0               0               0            0     1.320094e-22          4.3164203
   5.2027289e+14               0               0               0            0    7.1578935e-23          4.4368965
   5.8375579e+14               0               0               0            0     3.766735e-23          4.5621199
   6.5498477e+14               0               0               0            0    1.9190417e-23          4.6923228
     7.34905e+14               0               0               0            0    9.4403428e-24          4.8277516
   8.2457697e+14               0               0               0            0    4.4710904e-24          4.9686663
   9.2519058e+14               0               0               0            0    2.0322798e-24          5.1153424
   1.0380809e+15               0               0               0            0    8.8347682e-25          5.2680705
   1.1647459e+15               0               0               0            0    3.6594094e-25          5.4271562
   1.3068664e+15               0               0               0            0    1.4382762e-25          5.5929227
   1.4663282e+15               0               0               0            0    5.3398854e-26          5.7657137
